# Created on 2025-04-08 09:08:50.839702+02:00 (1744096130.839702 s)
# baldaquin version: 0.4.0
# Creator: Pendulum
# Time [s], Period [s], Transit time [s]
1.790686, 2.234885, 0.006312
2.907793, 2.233567, 0.006342
4.024253, 2.232280, 0.006374
5.140073, 2.231008, 0.006406
6.255261, 2.229748, 0.006438
7.369821, 2.228505, 0.006470
8.483766, 2.227292, 0.006500
9.597113, 2.226105, 0.006530
10.709871, 2.224934, 0.006562
11.822047, 2.223777, 0.006594
12.933648, 2.222633, 0.006624
14.044680, 2.221511, 0.006656
15.155159, 2.220409, 0.006690
16.265089, 2.219325, 0.006722
17.374484, 2.218256, 0.006752
18.483345, 2.217208, 0.006782
19.591692, 2.216180, 0.006816
20.699525, 2.215163, 0.006850
21.806855, 2.214167, 0.006882
22.913692, 2.213184, 0.006912
24.020039, 2.212211, 0.006942
25.125903, 2.211255, 0.006974
26.231294, 2.210316, 0.007008
27.336219, 2.209385, 0.007042
28.440679, 2.208466, 0.007074
29.544685, 2.207558, 0.007106
30.648237, 2.206663, 0.007138
31.751348, 2.205783, 0.007168
32.854020, 2.204907, 0.007200
33.956255, 2.204057, 0.007234
35.058077, 2.203231, 0.007266
36.159486, 2.202407, 0.007300
37.260484, 2.201587, 0.007332
38.361073, 2.200776, 0.007362
39.461260, 2.199974, 0.007396
40.561047, 2.199189, 0.007430
41.660449, 2.198416, 0.007462
42.759463, 2.197647, 0.007494
43.858096, 2.196890, 0.007528
44.956353, 2.196147, 0.007562
46.054243, 2.195414, 0.007594
47.151767, 2.194688, 0.007626
48.248931, 2.193972, 0.007658
49.345739, 2.193268, 0.007690
50.442199, 2.192573, 0.007722
51.538312, 2.191882, 0.007756
52.634081, 2.191202, 0.007790
53.729514, 2.190539, 0.007824
54.824620, 2.189880, 0.007856
55.919394, 2.189223, 0.007888
57.013843, 2.188579, 0.007922
58.107973, 2.187944, 0.007954
59.201787, 2.187319, 0.007986
60.295292, 2.186702, 0.008020
61.388489, 2.186084, 0.008054
62.481376, 2.185474, 0.008088
63.573963, 2.184880, 0.008122
64.666256, 2.184289, 0.008156
65.758252, 2.183704, 0.008188
66.849960, 2.183131, 0.008220
67.941383, 2.182560, 0.008254
69.032520, 2.181992, 0.008288
70.123375, 2.181436, 0.008322
71.213956, 2.180894, 0.008356
72.304269, 2.180350, 0.008390
73.394306, 2.179809, 0.008424
74.484078, 2.179279, 0.008460
75.573585, 2.178751, 0.008494
76.662829, 2.178231, 0.008526
77.751816, 2.177723, 0.008560
78.840552, 2.177219, 0.008596
79.929035, 2.176716, 0.008630
81.017268, 2.176224, 0.008664
82.105259, 2.175743, 0.008698
83.193011, 2.175260, 0.008730
84.280519, 2.174780, 0.008766
85.367791, 2.174311, 0.008802
86.454830, 2.173846, 0.008836
87.541637, 2.173385, 0.008870
88.628215, 2.172930, 0.008906
89.714567, 2.172480, 0.008942
90.800695, 2.172038, 0.008974
91.886605, 2.171600, 0.009006
92.972295, 2.171164, 0.009042
94.057769, 2.170731, 0.009078
95.143026, 2.170307, 0.009112
96.228076, 2.169884, 0.009148
97.312910, 2.169459, 0.009184
98.397535, 2.169048, 0.009218
99.481958, 2.168643, 0.009252
100.566178, 2.168238, 0.009288
101.650196, 2.167843, 0.009324
102.734021, 2.167451, 0.009358
103.817647, 2.167054, 0.009394
104.901075, 2.166661, 0.009430
105.984308, 2.166279, 0.009464
107.067354, 2.165898, 0.009500
108.150206, 2.165517, 0.009536
109.232871, 2.165143, 0.009574
110.315349, 2.164771, 0.009610
111.397642, 2.164405, 0.009644
112.479754, 2.164049, 0.009680
113.561691, 2.163695, 0.009718
114.643449, 2.163336, 0.009754
115.725027, 2.162979, 0.009786
116.806428, 2.162630, 0.009824
117.887657, 2.162290, 0.009862
118.968718, 2.161959, 0.009896
120.049616, 2.161623, 0.009932
121.130341, 2.161283, 0.009970
122.210899, 2.160954, 0.010006
123.291295, 2.160628, 0.010042
124.371527, 2.160305, 0.010078
125.451600, 2.159987, 0.010116
126.531514, 2.159670, 0.010156
127.611270, 2.159360, 0.010192
128.690874, 2.159054, 0.010228
129.770324, 2.158750, 0.010264
130.849624, 2.158449, 0.010300
131.928773, 2.158146, 0.010338
133.007770, 2.157848, 0.010376
134.086621, 2.157556, 0.010414
135.165326, 2.157262, 0.010452
136.243883, 2.156974, 0.010490
137.322300, 2.156691, 0.010528
138.400574, 2.156409, 0.010564
139.478709, 2.156131, 0.010602
140.556705, 2.155851, 0.010638
141.634560, 2.155572, 0.010672
142.712277, 2.155303, 0.010710
143.789863, 2.155033, 0.010750
144.867310, 2.154762, 0.010788
145.944625, 2.154500, 0.010826
147.021810, 2.154236, 0.010864
148.098861, 2.153968, 0.010902
149.175778, 2.153707, 0.010940
150.252568, 2.153453, 0.010976
151.329231, 2.153203, 0.011014
152.405771, 2.152954, 0.011054
153.482185, 2.152703, 0.011094
154.558474, 2.152454, 0.011132
155.634639, 2.152209, 0.011170
156.710683, 2.151969, 0.011210
157.786608, 2.151734, 0.011248
158.862417, 2.151496, 0.011286
159.938104, 2.151257, 0.011324
161.013674, 2.151025, 0.011364
162.089129, 2.150796, 0.011406
163.164470, 2.150569, 0.011444
164.239698, 2.150344, 0.011480
165.314814, 2.150116, 0.011520
166.389814, 2.149890, 0.011560
167.464704, 2.149669, 0.011600
168.539483, 2.149449, 0.011642
169.614153, 2.149233, 0.011682
170.688716, 2.149024, 0.011720
171.763177, 2.148811, 0.011758
172.837527, 2.148593, 0.011798
173.911770, 2.148383, 0.011840
174.985910, 2.148177, 0.011880
176.059947, 2.147972, 0.011918
177.133882, 2.147770, 0.011960
178.207717, 2.147567, 0.012002
179.281449, 2.147364, 0.012042
180.355081, 2.147164, 0.012082
181.428613, 2.146966, 0.012122
182.502047, 2.146766, 0.012162
183.575379, 2.146568, 0.012202
184.648615, 2.146375, 0.012246
185.721754, 2.146181, 0.012288
186.794796, 2.145990, 0.012328
187.867744, 2.145804, 0.012368
188.940600, 2.145615, 0.012408
190.013359, 2.145424, 0.012450
191.086024, 2.145241, 0.012492
192.158600, 2.145065, 0.012532
193.231089, 2.144887, 0.012574
194.303487, 2.144710, 0.012618
195.375799, 2.144534, 0.012658
196.448021, 2.144358, 0.012698
197.520157, 2.144182, 0.012742
198.592203, 2.144005, 0.012786
199.664162, 2.143833, 0.012828
200.736036, 2.143663, 0.012868
201.807825, 2.143495, 0.012910
202.879531, 2.143332, 0.012954
203.951157, 2.143167, 0.012998
205.022698, 2.143001, 0.013040
206.094158, 2.142840, 0.013084
207.165538, 2.142682, 0.013128
208.236840, 2.142522, 0.013172
209.308060, 2.142360, 0.013216
210.379200, 2.142196, 0.013256
211.450256, 2.142036, 0.013300
212.521236, 2.141878, 0.013344
213.592134, 2.141721, 0.013384
214.662957, 2.141571, 0.013426
215.733705, 2.141418, 0.013470
216.804375, 2.141261, 0.013514
217.874966, 2.141107, 0.013560
218.945482, 2.140955, 0.013604
220.015921, 2.140808, 0.013650
221.086290, 2.140665, 0.013696
222.156586, 2.140520, 0.013740
223.226810, 2.140375, 0.013784
224.296961, 2.140231, 0.013826
225.367041, 2.140084, 0.013870
226.437045, 2.139942, 0.013914
227.506983, 2.139805, 0.013958
228.576850, 1.875097, 0.014004
229.382080, 1.607631, 0.529104
230.184481, 1.869112, 1.049686
231.251192, 2.136341, 1.055548
232.320822, 2.139193, 1.055432
233.390385, 2.139059, 1.055318
234.459881, 2.138925, 1.055206
235.529310, 2.138792, 1.055096
236.598673, 2.138660, 1.054982
237.667970, 2.138529, 1.054868
238.737202, 2.138400, 1.054760
239.806370, 2.138271, 1.054652
240.875473, 2.138141, 1.054538
241.944511, 2.138011, 1.054426
243.013484, 2.137883, 1.054316
244.082394, 2.137754, 1.054204
245.151238, 2.137624, 1.054092
246.220018, 2.137499, 1.053984
247.288737, 2.137378, 1.053878
248.357396, 2.137258, 1.053768
249.425995, 2.137140, 1.053662
250.494536, 2.137025, 1.053560
251.563020, 2.136908, 1.053452
252.631444, 2.136786, 1.053344
253.699806, 2.136665, 1.053240
254.768109, 2.136550, 1.053134
255.836356, 2.136440, 1.053028
256.904549, 2.136330, 1.052926
257.972686, 2.136214, 1.052820
259.040763, 2.136101, 1.052718
260.108787, 2.135998, 1.052618
261.176761, 2.135893, 1.052514
262.244680, 2.135782, 1.052412
263.312543, 2.135673, 1.052310
264.380353, 2.135567, 1.052206
265.448110, 2.135459, 1.052104
266.515812, 2.135348, 1.051996
267.583458, 2.135240, 1.051896
268.651052, 2.135138, 1.051796
269.718596, 2.135035, 1.051696
270.786087, 2.134931, 1.051594
271.853527, 2.134828, 1.051494
272.920915, 2.134723, 1.051390
273.988250, 2.134620, 1.051288
275.055535, 2.134521, 1.051186
276.122771, 2.134420, 1.051090
277.189955, 2.134318, 1.050990
278.257089, 2.134221, 1.050890
279.324176, 2.134124, 1.050788
280.391213, 2.134023, 1.050686
281.458199, 2.133926, 1.050586
282.525139, 2.133835, 1.050494
283.592034, 2.133745, 1.050396
284.658884, 2.133653, 1.050300
285.725687, 2.133554, 1.050198
286.792438, 2.133455, 1.050100
287.859142, 2.133365, 1.050000
288.925803, 2.133277, 1.049906
289.992419, 2.133187, 1.049806
291.058990, 2.133099, 1.049712
292.125518, 2.133011, 1.049616
293.192001, 2.132920, 1.049518
294.258438, 2.132828, 1.049420
295.324829, 2.132739, 1.049322
296.391177, 2.132651, 1.049226
297.457480, 2.132560, 1.049128
298.523737, 2.132472, 1.049030
299.589952, 2.132385, 1.048932
300.656122, 2.132297, 1.048836
301.722249, 2.132212, 1.048742
302.788334, 2.132125, 1.048644
303.854374, 2.132040, 1.048548
304.920374, 2.131961, 1.048452
305.986335, 2.131880, 1.048358
307.052254, 2.131799, 1.048268
308.118134, 2.131717, 1.048172
309.183971, 2.131630, 1.048070
310.249764, 2.131552, 1.047980
311.315523, 2.131478, 1.047890
312.381242, 2.131398, 1.047792
313.446921, 2.131321, 1.047698
314.512563, 2.131245, 1.047602
315.578166, 2.131169, 1.047512
316.643732, 2.131090, 1.047420
317.709256, 2.131009, 1.047324
318.774741, 2.130935, 1.047230
319.840191, 2.130862, 1.047134
320.905603, 2.130786, 1.047042
321.970977, 2.130714, 1.046950
323.036317, 2.130641, 1.046858
324.101618, 2.130564, 1.046760
325.166881, 2.130490, 1.046666
326.232108, 2.130415, 1.046572
327.297296, 2.130341, 1.046480
328.362449, 2.130277, 1.046390
329.427573, 2.130210, 1.046298
330.492659, 2.130131, 1.046198
331.557704, 2.130053, 1.046104
332.622712, 2.129980, 1.046008
333.687684, 2.129908, 1.045912
334.752620, 2.129835, 1.045816
335.817519, 2.129764, 1.045726
336.882384, 2.129698, 1.045632
337.947217, 2.129634, 1.045542
339.012018, 2.129568, 1.045448
340.076785, 2.129500, 1.045358
341.141518, 2.129435, 1.045268
342.206220, 2.129370, 1.045172
343.270888, 2.129303, 1.045076
344.335523, 2.129236, 1.044982
345.400124, 2.129167, 1.044888
346.464690, 2.129101, 1.044796
347.529225, 2.129034, 1.044702
348.593724, 2.128963, 1.044604
349.658188, 2.128897, 1.044512
350.722621, 2.128835, 1.044418
351.787023, 2.128765, 1.044326
352.851386, 2.128688, 1.044224
353.915711, 2.128614, 1.044130
354.980000, 2.128547, 1.044032
356.044258, 2.128485, 1.043940
357.108485, 2.128422, 1.043850
358.172680, 2.128360, 1.043756
359.236845, 2.128298, 1.043662
360.300978, 2.128236, 1.043572
361.365081, 2.128175, 1.043482
362.429153, 2.128115, 1.043386
363.493196, 2.128036, 1.043296
364.557189, 2.127939, 1.043166
365.621135, 2.127866, 1.043082
366.685055, 2.127811, 1.042994
367.748946, 2.127755, 1.042908
368.812810, 2.127700, 1.042816
369.876646, 2.127648, 1.042732
370.940458, 2.127600, 1.042644
372.004246, 2.127549, 1.042556
373.068007, 2.127495, 1.042466
374.131741, 2.127442, 1.042382
375.195449, 2.127391, 1.042294
376.259132, 2.127341, 1.042208
377.322790, 2.127290, 1.042120
378.386422, 2.127239, 1.042032
379.450029, 2.127189, 1.041942
380.513611, 2.127138, 1.041854
381.577167, 2.127088, 1.041766
382.640699, 2.127041, 1.041682
383.704208, 2.126991, 1.041596
384.767690, 2.126939, 1.041508
385.831147, 2.126892, 1.041418
386.894582, 2.126849, 1.041336
387.957996, 2.126806, 1.041248
389.021388, 2.126757, 1.041160
390.084753, 2.126705, 1.041070
391.148093, 2.126657, 1.040978
392.211410, 2.126612, 1.040892
393.274705, 2.126565, 1.040806
394.337975, 2.126514, 1.040718
395.401219, 2.126466, 1.040630
396.464441, 2.126418, 1.040538
397.527637, 2.126366, 1.040446
398.590807, 2.126318, 1.040358
399.653955, 2.126274, 1.040270
400.717081, 2.126230, 1.040178
401.780185, 2.126185, 1.040090
402.843266, 2.126143, 1.040004
403.906328, 2.126102, 1.039920
404.969368, 2.126058, 1.039828
406.032386, 2.126012, 1.039740
407.095380, 2.125968, 1.039648
408.158354, 2.125931, 1.039560
409.221311, 2.125891, 1.039474
410.284245, 2.125850, 1.039390
411.347161, 2.125815, 1.039298
412.410060, 2.125776, 1.039212
413.472937, 2.125732, 1.039122
414.535792, 2.125688, 1.039032
415.598625, 2.125647, 1.038942
416.661439, 2.125609, 1.038854
417.724234, 2.125571, 1.038764
418.787010, 2.125531, 1.038676
419.849765, 2.125492, 1.038586
420.912502, 2.125457, 1.038500
421.975222, 2.125421, 1.038408
423.037923, 2.125383, 1.038322
424.100605, 2.125343, 1.038226
425.163266, 2.125304, 1.038136
426.225909, 2.125268, 1.038050
427.288534, 2.125231, 1.037964
428.351140, 2.125194, 1.037868
429.413728, 2.125161, 1.037776
430.476301, 2.125127, 1.037686
431.538855, 2.125087, 1.037602
432.601388, 2.125046, 1.037504
433.663901, 2.125006, 1.037414
434.726394, 2.124968, 1.037320
435.788869, 2.124935, 1.037230
436.851329, 2.124903, 1.037138
437.913772, 2.124868, 1.037048
438.976197, 2.124833, 1.036954
440.038605, 2.124798, 1.036862
441.100995, 2.124760, 1.036766
442.163365, 2.124722, 1.036674
443.225717, 2.124691, 1.036582
444.288056, 2.124662, 1.036492
445.350379, 2.124626, 1.036394
446.412682, 2.124586, 1.036300
447.474965, 2.124550, 1.036206
448.537232, 2.124518, 1.036116
449.599483, 2.124485, 1.036018
450.661717, 2.124453, 1.035926
451.723936, 2.124417, 1.035828
452.786134, 2.124379, 1.035732
453.848315, 2.124348, 1.035638
454.910482, 2.124315, 1.035544
455.972630, 2.124283, 1.035444
457.034765, 2.124256, 1.035354
458.096886, 2.124222, 1.035252
459.158987, 2.124187, 1.035154
460.221073, 2.124156, 1.035058
461.283143, 2.124125, 1.034962
462.345198, 2.124095, 1.034860
463.407238, 2.124066, 1.034772
464.469264, 2.124036, 1.034676
465.531274, 2.124005, 1.034580
466.593269, 2.123974, 1.034482
467.655248, 2.123942, 1.034384
468.717211, 2.123913, 1.034282
469.779161, 2.123885, 1.034186
470.841096, 2.123854, 1.034084
471.903015, 2.123826, 1.033986
472.964922, 2.123800, 1.033888
474.026815, 2.123770, 1.033790
475.088692, 2.123739, 1.033688
476.150554, 2.123711, 1.033592
477.212403, 2.123683, 1.033494
478.274237, 2.123656, 1.033394
479.336059, 2.123628, 1.033290
480.397865, 2.123594, 1.033190
481.459653, 2.123562, 1.033086
482.521427, 2.123535, 1.032986
483.583188, 2.123508, 1.032880
484.644935, 2.123478, 1.032778
485.706666, 2.123449, 1.032680
486.768384, 2.123423, 1.032580
487.830089, 2.123395, 1.032474
488.891779, 2.123363, 1.032366
489.953452, 2.123334, 1.032260
491.015113, 2.123310, 1.032162
492.076762, 2.123278, 1.032048
493.138391, 2.123243, 1.031942
494.200005, 2.123217, 1.031838
495.261608, 2.123188, 1.031736
496.323193, 2.123153, 1.031622
497.384761, 2.123129, 1.031526
498.446322, 2.123103, 1.031412
499.507864, 2.123064, 1.031300
500.569386, 2.123031, 1.031192
501.630895, 2.123011, 1.031086
502.692397, 2.122995, 1.030986
503.753890, 2.122972, 1.030876
504.815369, 2.122945, 1.030766
505.876835, 2.122919, 1.030662
506.938288, 2.122890, 1.030552
507.999725, 2.122855, 1.030438
509.061143, 2.122825, 1.030318
510.122550, 2.122803, 1.030216
511.183946, 2.122775, 1.030104
512.245325, 2.122744, 1.029998
513.306690, 2.122718, 1.029884
514.368043, 2.122693, 1.029774
515.429383, 2.122669, 1.029658
516.490712, 2.122651, 1.029552
517.552034, 2.122625, 1.029440
518.613337, 2.122597, 1.029314
519.674631, 2.122581, 1.029222
520.735918, 2.122558, 1.029096
521.797189, 2.122524, 1.028986
522.858442, 2.122488, 1.028860
523.919677, 2.122460, 1.028742
524.980902, 2.122431, 1.028632
526.042108, 2.122393, 1.028504
527.103295, 2.122368, 1.028386
528.164476, 2.122349, 1.028272
529.225644, 2.122321, 1.028156
530.286797, 2.122302, 1.028034
531.347946, 2.122289, 1.027932
532.409086, 2.122269, 1.027808
533.470215, 2.122247, 1.027690
534.531333, 2.122220, 1.027570
535.592435, 2.122196, 1.027450
536.653529, 2.122181, 1.027330
537.714616, 2.122160, 1.027212
538.775689, 2.122132, 1.027086
539.836748, 2.122105, 1.026968
540.897794, 2.122084, 1.026840
541.958832, 2.122066, 1.026724
543.019860, 2.122044, 1.026600
544.080876, 2.122021, 1.026480
545.141881, 2.122000, 1.026354
546.202876, 2.121982, 1.026232
547.263863, 2.121965, 1.026106
548.324841, 2.121947, 1.025982
549.385810, 2.121928, 1.025860
550.446769, 2.121912, 1.025738
551.507722, 2.121902, 1.025612
552.568671, 2.121886, 1.025490
553.629608, 2.121866, 1.025356
554.690537, 2.121849, 1.025238
555.751457, 2.121831, 1.025102
556.812368, 2.121816, 1.024980
557.873273, 2.121794, 1.024842
558.934162, 2.121764, 1.024716
559.995037, 2.121741, 1.024582
561.055903, 2.121717, 1.024450
562.116754, 2.121690, 1.024316
563.177593, 2.121667, 1.024190
564.238421, 2.121649, 1.024046
565.299242, 2.121631, 1.023920
566.360052, 2.121608, 1.023776
567.420850, 2.121593, 1.023652
568.481645, 2.121580, 1.023510
569.542430, 2.121554, 1.023372
570.603199, 2.121532, 1.023226
571.663962, 2.121518, 1.023096
572.724717, 2.121496, 1.022954
573.785458, 2.121469, 1.022812
574.846186, 2.121440, 1.022664
575.906898, 2.121413, 1.022528
576.967599, 2.121392, 1.022374
578.028290, 2.121373, 1.022236
579.088972, 2.121353, 1.022092
580.149643, 2.121337, 1.021954
581.210309, 2.121324, 1.021810
582.270967, 2.121305, 1.021670
583.331614, 2.121285, 1.021520
584.392252, 2.121270, 1.021376
585.452884, 2.121252, 1.021220
586.513504, 2.121225, 1.021072
587.574109, 2.121203, 1.020926
588.634707, 2.121191, 1.020778
589.695300, 2.121172, 1.020628
590.755879, 2.121146, 1.020478
591.816446, 2.121124, 1.020316
592.877003, 2.121109, 1.020170
593.937555, 2.121093, 1.020014
594.998096, 2.121068, 1.019864
596.058623, 2.121047, 1.019698
597.119143, 2.121030, 1.019554
598.179653, 2.121013, 1.019394
599.240156, 2.120995, 1.019248
600.300648, 2.120973, 1.019072
601.361129, 2.120953, 1.018922
602.421601, 2.120927, 1.018750
603.482056, 2.120901, 1.018588
604.542502, 2.120884, 1.018428
605.602940, 2.120859, 1.018268
606.663361, 2.120838, 1.018106
607.723778, 2.120829, 1.017944
608.784190, 2.120812, 1.017776
609.844590, 2.120784, 1.017616
610.904974, 2.120763, 1.017444
611.965353, 2.120746, 1.017278
613.025720, 2.120726, 1.017104
614.086079, 2.120704, 1.016938
615.146424, 2.120683, 1.016764
616.206762, 2.120659, 1.016596
617.267083, 2.120631, 1.016410
618.327393, 2.120611, 1.016242
619.387694, 2.120588, 1.016060
620.447981, 2.120567, 1.015886
621.508261, 2.120544, 1.015706
622.568525, 2.120515, 1.015518
623.628776, 2.120491, 1.015332
624.689016, 2.120464, 1.015160
625.749240, 2.120410, 1.014968
626.809426, 2.120333, 1.014736
627.869573, 2.120289, 1.014562
628.929715, 2.120275, 1.014398
629.989848, 2.120250, 1.014228
631.049965, 2.120234, 1.014070
632.110082, 2.120224, 1.013884
633.170189, 2.120200, 1.013698
634.230282, 2.120175, 1.013524
635.290364, 2.120154, 1.013352
636.350436, 2.120133, 1.013168
637.410497, 2.120113, 1.012994
638.470549, 2.120093, 1.012802
639.530590, 2.120064, 1.012620
640.590613, 2.120035, 1.012426
641.650625, 2.120008, 1.012242
642.710621, 2.119988, 1.012046
643.770613, 2.119902, 1.011866
644.830523, 2.119742, 1.011550
645.890355, 2.119658, 1.011402
646.950181, 2.119639, 1.011230
648.009994, 2.119620, 1.011072
649.069801, 2.119603, 1.010910
650.129597, 2.119587, 1.010754
651.189388, 2.119572, 1.010584
652.249169, 2.119534, 1.010422
653.308922, 2.119487, 1.010212
654.368656, 2.119448, 1.010064
655.428370, 2.119402, 1.009880
656.488058, 2.119366, 1.009736
657.547736, 2.119347, 1.009568
658.607405, 2.119333, 1.009414
659.667069, 2.119320, 1.009266
660.726725, 2.119305, 1.009118
661.786374, 2.119291, 1.008964
662.846016, 2.119281, 1.008820
663.905655, 2.119273, 1.008662
664.965289, 2.119256, 1.008514
666.024911, 2.119235, 1.008346
667.084524, 2.119222, 1.008196
668.144133, 2.119211, 1.008046
669.203735, 2.119194, 1.007894
670.263327, 2.119180, 1.007726
671.322915, 2.119171, 1.007578
672.382498, 2.119157, 1.007416
673.442072, 2.119145, 1.007268
674.501643, 2.119134, 1.007098
675.561206, 2.119112, 1.006960
676.620755, 2.119097, 1.006794
677.680303, 2.119090, 1.006646
678.739845, 2.119077, 1.006462
679.799380, 2.119062, 1.006324
680.858907, 2.119038, 1.006154
681.918418, 2.119019, 1.005992
682.977926, 2.119015, 1.005836
684.037433, 2.119011, 1.005686
685.096937, 2.119008, 1.005526
686.156441, 2.119007, 1.005370
687.215944, 2.118996, 1.005208
688.275437, 2.118979, 1.005034
